<?xml version="1.0"?>
<xrdMeasurements xmlns="http://www.xrdml.com/XRDMeasurement/2.2" xmlns:xsi="http://www.w3.org/2001/XMLSchema-instance" xsi:schemaLocation="http://www.xrdml.com/XRDMeasurement/2.2 http://www.xrdml.com/XRDMeasurement/2.2/XRDMeasurement.xsd" status="Completed" recordIdentifier="{0ECF6881-DB65-41B3-BECD-22D6FA7D168E}">
	<comment>
		<entry>Configuration=3-axes Cradle_Reflection with Manual XY, Owner=XRDLAB, Creation date=20-03-2020 12:12:52</entry>
		<entry>Goniometer=Theta/Theta; Minimum step size 2Theta:0.0001; Minimum step size Omega:0.0001</entry>
		<entry>Sample stage=Chi-Phi-z stage 240 mm (reflection) with Manual XY platform; Minimum step size Phi:0.01; Minimum step size Chi:0.01; Minimum step size Z:0.001</entry>
		<entry>Diffractometer system=EMPYREAN</entry>
		<entry>Measurement program=D:\Other Deptt\XRD Programs\Cradle\Gonio XRD scans\Gonio Scan for Solids_10mm spot_Cradle_10-90_8 min.xrdmp, Created identifier={6FCCD36D-0281-4EA0-9AED-2083D2DEBE7D}, Created by=PhD Scholer, Id=allusers, Creation date=24-12-2021 16:59:32, Modified identifier={1AB7A512-BBE4-4BB6-BAD3-9ADC2CAF1B99}, Modified by=XRDLAB, Id=WL:DESKTOP-H0T99MI:XRDLAB, Modification date=08-09-2026 22:10:41</entry>
	</comment>
	<sample type="To be analyzed">
		<id></id>
		<name></name>
		<preparedBy></preparedBy>
	</sample>
	<xrdMeasurement measurementType="Scan" status="Completed" sampleMode="Reflection">
		<comment>
			<entry>PHD Lower Level = 4.02 (keV), PHD Upper Level = 11.27 (keV)</entry>
		</comment>
		<usedWavelength intended="K-Alpha 1">
			<kAlpha1 unit="Angstrom">1.5405980</kAlpha1>
			<kAlpha2 unit="Angstrom">1.5444260</kAlpha2>
			<kBeta unit="Angstrom">1.3922500</kBeta>
			<ratioKAlpha2KAlpha1>0.5000</ratioKAlpha2KAlpha1>
		</usedWavelength>
		<incidentBeamPath>
			<radius unit="mm">240.00</radius>
			<xRayTube id="1010048" name="Empyrean Cu LFF HR (9430 033 7310x) DK427577">
				<tension unit="kV">45.0</tension>
				<current unit="mA">40.0</current>
				<anodeMaterial>Cu</anodeMaterial>
				<focus type="Line">
					<length unit="mm">12.0</length>
					<width unit="mm">0.4</width>
					<takeOffAngle unit="deg">7.6</takeOffAngle>
				</focus>
			</xRayTube>
			<xRayMirror id="27020009" name="Bragg-Brentano HD Cu" hybrid="false">
				<crystal type="Graded" shape="Flat">BB/HD</crystal>
				<acceptanceAngle unit="deg">0.800</acceptanceAngle>
				<length unit="mm">55.3</length>
			</xRayMirror>
			<sollerSlit id="21010010" name="BBHD Soller slits 0.03 rad.">
				<opening unit="rad">0.0300</opening>
			</sollerSlit>
			<mask id="22220007" name="Mask 14.0 mm">
				<distanceToSample unit="mm">171.50</distanceToSample>
				<width unit="mm">14.00</width>
			</mask>
			<mask id="22220006" name="Mask 6.0 mm">
				<distanceToSample unit="mm">111.00</distanceToSample>
				<width unit="mm">6.00</width>
			</mask>
			<divergenceSlit id="22010028" name="PDS for iCore" xsi:type="fixedDivergenceSlitType">
				<distanceToSample unit="mm">95.50</distanceToSample>
				<angle unit="deg">0.125</angle>
			</divergenceSlit>
		</incidentBeamPath>
		<diffractedBeamPath>
			<radius unit="mm">240.00</radius>
			<antiScatterSlit id="22060010" name="PASS for dCore" xsi:type="fixedAntiScatterSlitType">
				<angle unit="deg">0.5</angle>
			</antiScatterSlit>
			<sollerSlit id="21030002" name="dCore Soller slits 0.04 rad.">
				<opening unit="rad">0.0400</opening>
			</sollerSlit>
			<detector id="7010020" name="PIXcel3D-Medipix3 1x1 detector" xsi:type="areaDetectorType">
				<phd unit="%">
					<lowerLevel>25.0</lowerLevel>
					<upperLevel>70.0</upperLevel>
				</phd>
				<mode>Scanning</mode>
				<activeChannelsEquatorial>255</activeChannelsEquatorial>
				<activeChannelsAxial>255</activeChannelsAxial>
				<pitchEquatorial unit="mm">0.05500</pitchEquatorial>
				<pitchAxial unit="mm">0.05500</pitchAxial>
				<readOutPeriod unit="seconds">0.325</readOutPeriod>
			</detector>
		</diffractedBeamPath>
		<scan appendNumber="0" mode="Continuous" scanAxis="Gonio" status="Completed">
			<header>
				<startTimeStamp>2026-09-08T22:49:42+05:30</startTimeStamp>
				<endTimeStamp>2026-09-08T23:20:17+05:30</endTimeStamp>
				<author>
					<name>XRDLAB</name>
				</author>
				<source>
					<applicationSoftware version="7.4">Data Collector</applicationSoftware>
					<instrumentControlSoftware version="8.2b 20221117">EMPYREAN</instrumentControlSoftware>
					<instrumentID>0000000011239941</instrumentID>
				</source>
			</header>
			<dataPoints>
				<positions axis="2Theta" unit="deg">
					<startPosition>20.00656514</startPosition>
					<endPosition>89.99097181</endPosition>
				</positions>
				<positions axis="Omega" unit="deg">
					<startPosition>10.00328257</startPosition>
					<endPosition>44.99548591</endPosition>
				</positions>
				<positions axis="Phi" unit="deg">
					<commonPosition>0.00</commonPosition>
				</positions>
				<positions axis="Chi" unit="deg">
					<commonPosition>0.00</commonPosition>
				</positions>
				<positions axis="Z" unit="mm">
					<commonPosition>6.814</commonPosition>
				</positions>
				<commonCountingTime unit="seconds">81.345</commonCountingTime>
				<counts unit="counts">300 275 287 320 283 277 259 318 295 265 272 310 292 334 274 293 310 308 279 282 338 295 318 269 294 297 304 241 290 271 298 284 266 283 287 300 294 297 290 296 292 295 280 297 324 270 270 264 308 269 312 295 291 290 290 239 272 259 261 297 269 278 247 259 258 257 259 270 299 246 269 274 260 238 262 267 258 292 245 291 268 277 282 274 265 287 270 243 244 291 269 271 265 256 244 261 241 283 262 256 286 262 270 293 292 277 300 294 286 293 311 299 273 272 284 283 296 286 272 283 285 275 309 271 259 289 279 271 267 283 289 270 280 266 277 284 266 279 276 278 268 278 248 303 287 271 259 291 282 290 275 271 264 279 241 238 263 269 288 297 263 295 264 288 271 283 273 267 275 269 276 258 316 273 249 271 246 286 243 270 258 242 273 250 245 242 295 237 262 259 234 267 243 270 277 261 268 237 256 242 245 273 269 265 276 284 212 276 275 266 240 249 264 269 265 240 256 258 269 239 239 259 256 234 280 264 278 235 245 243 272 241 237 263 269 225 257 243 214 233 294 232 247 241 199 228 233 240 225 284 217 234 233 216 236 226 233 235 278 245 218 219 238 242 243 282 237 233 216 228 232 256 216 230 238 250 266 229 248 233 240 237 260 222 231 292 236 247 238 212 236 225 225 223 260 221 268 250 226 211 230 257 260 242 237 284 269 249 228 262 223 263 231 248 270 267 257 269 260 233 212 223 246 258 229 245 239 220 274 264 235 268 218 235 262 258 264 214 248 242 243 275 237 292 220 226 214 230 259 269 218 258 236 234 226 242 223 226 225 234 237 244 227 241 214 228 232 243 240 231 219 230 229 219 246 212 232 236 256 228 239 267 217 227 229 249 208 239 196 238 194 215 218 212 203 199 241 215 224 230 244 242 242 230 241 262 227 203 227 198 229 225 233 206 227 223 222 207 235 225 239 211 220 203 217 214 238 213 215 210 239 223 222 238 233 201 214 217 223 225 209 225 205 228 236 246 231 198 191 216 236 233 208 232 215 249 224 215 240 232 187 209 203 225 192 236 200 215 239 199 222 207 220 224 212 227 195 224 214 217 198 198 201 183 231 214 193 224 245 236 204 206 221 235 208 230 225 233 217 229 211 218 259 227 230 240 237 259 236 242 206 220 240 258 235 230 232 261 201 264 264 248 239 211 258 249 273 271 251 234 244 232 243 244 239 238 277 241 230 247 227 239 240 257 228 233 242 227 229 248 205 238 232 239 218 228 244 221 250 219 237 210 247 244 220 219 224 243 236 215 247 234 216 242 222 244 226 249 260 222 241 225 238 268 207 224 221 237 211 226 223 227 221 196 224 214 220 233 228 219 222 197 213 240 270 231 242 227 214 269 207 219 226 236 215 242 241 228 217 235 221 237 223 245 228 248 215 199 245 248 244 244 234 267 256 238 228 220 216 209 210 235 199 217 222 217 217 206 205 234 232 228 212 216 206 224 201 203 207 214 219 210 197 192 214 232 202 195 183 189 236 189 196 213 169 211 203 191 189 191 220 227 206 180 229 240 207 198 189 184 200 214 219 198 231 169 203 207 232 208 208 181 197 213 195 199 216 233 211 213 237 217 235 202 213 223 210 212 214 186 226 190 213 215 226 186 210 199 199 215 194 194 220 197 203 231 221 233 221 205 213 227 187 177 228 217 215 198 230 218 188 219 206 210 228 201 203 223 218 188 212 202 195 193 207 191 191 201 197 194 210 199 219 197 209 200 209 211 193 207 197 199 212 199 180 188 193 183 194 199 191 202 197 214 190 195 198 191 195 202 189 194 184 190 196 181 203 218 201 205 206 199 216 223 211 211 224 196 196 214 187 192 194 194 214 198 226 211 209 165 206 176 221 150 195 184 238 217 189 184 212 190 217 204 209 194 198 181 209 207 204 214 225 167 202 186 216 186 204 200 197 192 206 191 212 189 203 227 193 193 192 189 188 226 212 186 213 191 201 216 206 198 172 171 206 208 192 172 205 223 211 217 201 217 185 184 196 202 195 212 226 203 190 210 197 196 195 223 192 189 213 202 204 195 195 199 224 197 222 184 192 204 204 188 202 200 186 179 183 182 237 204 225 206 180 198 205 207 206 188 219 215 226 181 219 177 181 178 216 205 193 189 198 200 204 194 204 214 181 229 179 195 196 181 184 203 176 189 197 177 210 218 200 228 195 199 217 220 221 198 216 201 197 181 192 203 208 211 187 171 208 175 178 177 189 180 193 204 190 202 214 205 188 233 213 206 202 174 201 205 204 207 209 196 207 162 202 171 216 186 194 214 200 176 207 206 193 189 191 192 208 202 197 201 190 196 189 217 206 202 199 192 177 196 186 215 183 191 190 207 188 189 176 168 188 171 188 209 188 203 194 193 199 195 165 195 198 207 205 217 220 196 216 181 230 235 207 185 203 187 208 202 201 212 211 164 205 213 216 190 200 209 196 195 207 199 186 202 198 227 218 194 222 211 236 203 208 220 169 198 189 205 219 187 196 200 186 191 223 202 184 198 192 211 210 199 231 221 179 188 182 208 192 174 218 229 233 211 196 210 171 197 206 235 242 188 198 213 199 184 195 217 248 202 208 201 213 245 229 217 205 218 202 207 197 212 220 220 204 202 225 214 235 221 228 238 240 230 259 226 214 249 243 246 245 281 263 272 247 242 229 271 265 241 272 291 306 293 287 282 288 285 249 302 299 288 298 316 298 290 296 291 282 278 315 284 279 295 276 275 242 264 278 226 270 250 238 256 243 240 269 247 275 272 238 232 267 227 241 250 226 211 229 234 231 258 264 249 256 265 226 237 261 245 260 265 206 222 250 258 242 268 242 281 246 274 242 261 232 234 249 292 296 278 263 246 268 276 249 261 295 267 273 299 298 311 304 260 306 320 258 305 300 296 312 345 319 315 300 297 317 328 309 304 320 279 300 329 322 318 325 373 328 359 336 381 382 374 328 360 407 390 426 382 403 411 396 384 438 417 462 431 452 466 457 491 486 504 521 545 526 537 592 574 614 649 664 701 753 794 802 835 967 940 1063 1127 1205 1165 1183 1408 1405 1530 1603 1699 1711 1762 1895 1896 2060 2093 2173 2228 2233 2278 2365 2465 2592 2635 2744 2862 2896 2930 3131 3356 3431 3772 3864 4076 4434 4920 5470 5856 6420 7069 7990 9048 10437 11985 12476 11718 9484 7711 6716 6330 6663 6867 6677 5568 4274 3235 2631 2133 1977 1712 1666 1507 1430 1370 1271 1229 1196 1139 1088 1136 1036 1017 1031 947 985 971 977 923 973 986 972 959 1021 1053 993 1053 1094 1183 1172 1156 1285 1260 1325 1378 1408 1488 1503 1509 1610 1653 1544 1550 1553 1571 1513 1507 1522 1463 1387 1353 1219 1175 1091 1062 1028 909 835 853 786 771 711 712 602 615 571 544 536 451 466 482 490 434 407 395 339 385 374 352 340 389 357 350 306 322 329 305 311 329 337 326 289 306 269 274 307 317 272 259 282 278 248 278 264 265 264 246 273 271 245 276 260 247 249 264 261 271 243 235 258 267 241 265 259 276 284 225 242 266 271 225 267 264 236 209 244 288 244 214 265 231 270 208 204 198 258 257 258 261 238 224 237 220 239 235 278 240 239 217 288 218 221 228 228 261 212 227 242 240 265 245 235 238 245 229 261 236 248 227 215 232 222 232 258 239 199 224 242 225 230 234 204 225 195 202 230 198 175 240 234 237 209 202 206 221 210 198 206 211 201 209 230 218 200 219 210 211 179 212 178 191 187 212 199 192 205 206 221 203 208 217 202 183 182 190 178 198 219 187 198 185 190 182 222 204 198 175 210 190 187 201 176 166 185 174 174 202 202 203 214 192 189 186 201 179 181 198 188 205 175 204 214 196 188 192 194 188 203 195 187 220 167 199 195 203 192 222 200 198 206 194 193 184 189 209 191 162 197 171 171 193 172 194 187 175 199 176 204 188 187 189 171 193 205 172 213 195 168 194 212 156 188 167 188 194 183 196 192 180 190 179 172 190 178 185 178 161 202 179 187 168 176 169 185 187 215 169 159 162 165 193 186 149 182 181 182 169 175 169 163 187 174 199 185 167 199 155 187 169 174 153 161 182 162 160 182 152 182 186 178 175 158 186 164 152 199 171 161 155 193 191 145 168 177 178 195 149 173 179 164 150 142 154 162 166 170 179 174 155 165 182 177 190 179 158 164 170 143 179 150 178 151 161 177 171 151 151 181 163 163 164 174 166 146 169 164 140 159 178 175 199 182 153 139 149 161 169 174 162 153 164 167 162 176 147 173 158 149 154 162 164 174 163 165 159 178 171 154 155 167 160 160 149 165 175 160 151 136 155 159 148 176 168 128 181 160 171 162 159 186 157 172 144 176 165 166 177 179 168 163 170 149 155 138 156 160 151 146 148 144 175 179 173 176 141 160 150 163 151 183 162 176 134 177 159 139 157 149 163 146 164 148 167 182 166 174 164 174 169 149 171 153 165 169 158 164 154 164 159 146 204 176 152 176 152 156 157 162 148 175 182 163 173 169 174 155 171 158 141 178 172 149 156 162 173 151 153 177 145 172 153 155 139 172 182 163 157 175 146 164 174 176 154 157 160 153 143 135 157 132 146 171 161 165 149 168 177 150 136 149 138 140 146 162 172 166 167 156 123 159 176 141 163 150 167 170 159 156 144 161 140 165 145 164 154 153 148 146 145 153 151 152 153 136 164 151 143 155 153 150 165 140 162 171 160 154 151 149 141 151 153 157 170 162 164 148 151 150 156 161 167 163 146 157 161 146 157 155 156 158 136 184 191 153 173 147 165 139 171 158 152 136 162 150 162 150 145 135 154 154 174 144 157 178 151 149 158 142 183 152 141 144 168 163 140 160 147 168 150 159 179 162 152 177 146 172 150 170 145 155 158 139 169 158 162 156 157 158 138 157 145 148 145 166 174 155 171 171 129 143 163 118 136 167 141 151 168 135 127 136 160 180 151 135 151 139 149 167 154 160 149 145 161 136 140 163 160 152 140 142 141 167 132 143 143 172 134 155 172 139 175 172 175 177 122 146 158 131 133 158 158 167 136 167 141 152 137 145 145 153 140 145 149 165 156 142 155 145 153 148 153 172 142 140 157 134 162 171 167 175 174 140 151 159 174 138 145 159 137 167 163 156 157 137 157 146 163 167 157 171 143 149 140 156 160 141 164 159 158 167 173 160 140 172 163 172 185 168 143 175 171 174 167 148 176 174 163 182 169 188 170 159 185 174 176 153 191 185 183 177 186 190 173 196 158 168 175 164 169 172 183 166 187 160 158 194 162 188 161 174 179 178 186 168 158 159 168 179 176 171 154 159 162 167 180 182 162 177 167 190 153 178 149 196 156 172 190 175 192 185 196 187 175 164 167 172 176 168 170 170 155 173 181 167 156 151 157 171 181 171 167 184 176 156 171 182 176 177 144 187 155 161 171 186 175 176 181 162 143 182 164 148 142 156 138 192 160 178 175 174 191 164 174 176 191 176 175 176 156 182 154 156 156 180 162 153 161 172 152 189 175 156 174 168 150 163 162 205 187 149 194 163 153 159 167 156 168 164 152 156 172 155 177 177 160 183 167 153 138 200 170 169 156 181 165 165 151 163 195 172 173 148 167 154 154 155 171 140 164 173 159 176 155 155 185 162 189 168 167 163 160 171 175 195 148 153 168 174 165 173 161 174 167 174 147 158 169 190 172 181 171 161 175 174 154 162 200 191 174 156 184 182 180 152 165 163 165 171 160 180 179 163 176 173 158 182 165 171 170 183 188 184 152 189 177 157 185 180 204 179 167 192 183 192 163 177 172 157 188 163 174 172 190 178 190 161 195 178 184 169 148 187 189 171 155 189 211 184 185 178 176 181 171 176 182 155 186 187 191 187 188 181 169 159 179 178 173 183 163 180 184 181 201 169 164 191 174 190 181 172 178 178 185 163 175 184 174 186 190 192 182 169 206 181 211 209 176 192 226 192 203 192 198 186 190 186 217 188 201 187 163 170 211 197 191 192 201 191 205 209 204 206 228 231 200 235 185 212 213 233 190 217 223 235 200 209 217 211 208 223 210 212 209 222 205 219 233 231 215 234 192 207 232 227 198 188 191 198 196 194 230 175 201 174 200 202 201 185 206 202 229 212 195 191 175 182 198 212 225 213 208 188 213 168 189 181 207 183 162 169 175 193 183 190 179 163 174 177 171 168 172 181 184 190 169 154 162 154 178 199 144 180 152 161 187 182 148 151 179 169 179 180 186 172 196 143 167 188 162 177 173 149 167 149 151 157 153 150 159 181 162 151 155 146 167 173 149 152 144 161 162 156 141 176 159 169 161 164 157 157 172 158 151 146 145 168 164 161 152 141 147 153 139 160 132 169 149 163 159 136 150 161 131 147 156 143 129 143 161 134 160 128 148 136 173 142 157 166 145 149 149 153 143 141 139 127 122 132 141 153 150 128 155 144 136 158 156 158 161 140 174 137 178 175 157 160 148 136 145 170 162 159 161 150 124 145 164 148 160 154 169 140 151 170 167 144 164 159 178 158 164 169 159 147 152 161 139 155 170 169 130 150 173 137 143 163 162 144 124 170 143 164 152 149 144 148 169 159 147 153 145 119 148 174 146 173 151 145 144 122 148 149 164 153 173 157 145 134 155 184 162 173 145 171 150 140 137 177 123 152 153 132 139 130 156 149 124 145 148 133 163 132 169 150 148 153 141 145 159 141 146 145 131 130 134 121 159 154 156 141 150 159 155 140 140 161 148 148 155 163 156 157 154 148 142 166 163 168 136 163 162 140 132 116 145 142 129 138 144 135 146 162 147 151 143 159 161 159 176 149 137 135 139 157 142 141 132 168 137 138 162 168 153 168 144 135 131 143 147 148 158 140 145 134 159 157 141 157 160 149 131 171 139 169 152 161 140 146 157 150 164 158 156 130 145 139 161 153 125 148 156 146 140 152 175 180 153 143 167 153 151 160 157 144 150 161 153 154 143 149 185 171 140 139 167 152 151 168 163 157 162 151 146 141 150 149 152 171 143 173 157 139 126 136 160 146 161 156 175 152 168 157 162 159 172 143 155 145 166 123 160 166 155 139 145 142 156 149 195 166 152 163 180 156 166 163 167 155 147 175 146 152 175 151 183 158 163 166 156 161 150 148 154 177 172 163 156 164 172 149 179 153 167 162 159 171 150 177 154 178 165 179 188 168 145 163 167 148 148 162 150 172 160 174 167 173 160 156 154 169 170 164 168 169 152 148 149 159 168 164 168 159 161 150 178 168 149 159 166 165 183 171 161 161 148 155 146 162 174 165 164 159 165 168 164 147 166 167 170 161 174 153 182 174 177 156 175 182 176 144 163 164 166 161 170 175 178 159 162 170 187 171 162 166 155 183 179 158 150 182 181 190 180 185 178 146 167 179 178 149 182 164 179 186 180 177 177 182 181 174 170 172 163 180 160 197 190 175 203 181 172 187 171 184 193 174 191 184 173 180 209 178 155 143 170 167 184 174 158 178 194 189 190 175 180 191 157 174 177 180 175 175 167 175 176 169 169 188 158 155 162 152 183 168 157 167 170 153 149 153 154 135 147 147 136 137 144 162 159 152 177 174 147 160 163 183 159 142 147 162 141 139 152 133 152 166 149 146 163 142 150 156 163 149 144 147 155 146 137 170 152 151 133 156 144 147 140 139 139 157 168 167 149 148 146 143 160 151 142 157 164 155 128 132 139 152 140 147 143 136 145 162 165 152 133 143 151 164 117 160 128 136 160 137 154 143 133 155 142 162 147 171 138 147 120 142 139 127 147 142 156 159 153 143 145 151 159 149 168 172 176 153 144 149 130 167 168 151 146 175 178 136 136 169 156 147 144 157 133 153 157 160 184 172 178 138 153 149 159 169 159 165 163 188 131 141 131 151 152 150 159 137 167 151 149 152 168 154 146 151 155 146 175 169 171 154 169 145 164 156 158 164 175 144 174 171 191 166 157 179 153 156 149 145 144 142 169 164 157 180 156 147 157 157 158 133 140 168 179 159 171 155 160 163 148 174 182 161 158 170 178 138 159 166 186 179 169 177 149 179 162 184 184 159 131 156 151 162 132 151 173 171 148 174 169 135 153 164 161 155 134 150 144 159 153 149 161 116 150 166 157 147 165 144 144 131 167 167 171 171 166 157 148 154 120 166 134 185 134 167 124 150 145 152 136 175 145 180 135 154 171 163 147 150 155 158 174 138 145 166 160 147 176 134 158 179 147 163 134 143 174 163 144 150 170 174 147 152 164 168 176 148 144 157 153 165 149 151 138 160 163 165 174 164 156 177 167 139 178 149 155 155 186 180 188 171 181 197 162 182 185 176 155 168 167 159 175 159 159 163 174 165 194 201 182 171 182 177 191 180 182 184 179 192 192 157 185 197 182 206 198 212 187 191 185 165 212 210 205 213 211 204 193 200 185 211 226 207 211 199 226 198 236 217 237 228 223 231 244 230 233 222 222 264 234 275 269 262 289 266 256 272 279 271 273 271 278 264 263 304 278 314 294 306 338 332 345 307 305 334 344 328 282 299 296 299 288 289 306 238 256 236 256 244 275 261 232 226 246 217 259 234 228 212 211 205 201 203 177 185 194 219 201 186 195 202 195 205 192 199 170 172 173 194 157 190 180 169 164 157 188 158 180 159 156 161 191 167 183 190 198 179 168 190 193 152 168 174 147 184 166 187 186 165 193 186 182 193 166 140 173 175 152 155 155 177 154 143 176 160 182 174 180 183 198 166 155 157 182 160 159 172 169 180 144 168 161 175 173 166 172 161 185 156 175 171 170 168 158 156 157 161 178 185 170 173 163 181 154 151 160 175 168 162 159 148 159 183 173 164 156 134 162 133 161 147 163 142 150 159 136 145 145 132 145 173 172 173 146 148 147 136 147 170 165 147 163 159 184 159 160 150 178 175 166 147 170 159 164 163 142 141 134 176 145 145 156 171 158 151 137 161 147 140 160 167 169 154 147 164 136 156 140 187 133 158 174 156 172 157 137 170 132 141 131 152 141 168 142 174 132 150 162 128 160 143 160 160 144 158 161 154 160 158 150 166 170 164 149 163 174 151 156 176 173 159 157 164 175 168 179 178 187 132 203 165 175 157 199 186 205 192 197 186 214 218 189 217 236 243 216 222 200 220 243 220 239 278 277 271 274 292 224 237 256 271 257 238 217 235 224 282 209 228 225 261 234 238 247 212 225 219 238 223 230 237 235 236 219 177 191 184 177 215 199 199 173 207 193 166 209 162 173 196 181 181 185 177 189 166 206 165 185 177 172 178 162 164 186 181 177 142 167 165 175 158 171 179 166 164 159 181 170 136 171 147 170 150 152 150 145 162 154 160 143 175 159 149 164 163 166 134 159 178 162 169 127 153 169 144 123 158 173 158 164 170 171 144 154 137 171 158 141 160 177 162 161 152 133 151 182 177 167 172 151 155 134 156 136 158 166 157 149 162 130 154 144 175 157 149 139 143 155 163 184 124 171 160 145 163 160 151 152 139 141 148 128 131 145 162 149 142 152 183 154 159 160 154 145 140 144 150 163 153 167 142 167 152 172 152 144 151 159 156 159 148 133 157 161 159 169 165 128 145 139 169 152 138 136 157 157 150 167 152 152 142 162 151 183 147 124 136 175 150 154 191 157 171 169 161 151 156 140 159 157 158 140 129 152 139 135 160 146 177 140 150 147 149 143 124 149 144 155 152 170 149 170 141 129 128 178 169 147 140 136 152 158 133 149 159 165 156 167 142 151 156 140 145 140 140 143 149 156 143 160 156 161 157 157 160 162 157 148 149 166 160 145 134 132 138 151 136 150 130 133 139 147 126 130 145 147 148 179 154 147 137 142 141 163 149 137 162 140 170 126 137 142 140 147 144 155 134 128 148 144 155 131 143 134 147 152 149 146 152 135 139 122 153 136 122 142 155 155 144 128 142 166 146 169 151 147 134 133 128 115 157 141 151 137 140 133 145 145 119 156 130 134 136 131 122 134 149 141 142 140 184 151 154 149 125 163 147 126 144 157 151 155 155 140 137 151 151 154 156 159 137 164 130 145 159 132 136 146 154 152 137 132 157 151 146 144 160 170 143 158 136 163 149 145 133 161 138 172 159 142 160 165 158 133 148 143 125 144 142 145 162 161 153 155 164 161 134 141 137 130 168 139 146 131 156 139 138 130 135 160 157 130 145 154 133 172 154 140 140 168 135 148 161 167 160 162 130 142 153 137 131 150 150 145 170 157 131 140 179 145 118 164 136 137 149 154 173 163 140 156 162 143 148 154 137 142 154 148 149 142 161 139 152 145 140 149 157 163 143 149 145 142 132 149 161 132 139 148 143 140 146 159 153 155 149 162 156 178 152 141 148 151 144 131 147 127 150 118 153 163 133 141 120 144 141 128 133 151 118 146 162 152 157 131 136 180 147 135 160 172 159 162 168 142 150 192 164 163 161 161 160 135 145 148 146 167 160 123 154 143 152 134 150 157 157 134 152 161 163 179 163 164 148 159 168 185 139 181 151 166 141 181 180 189 182 149 174 163 176 169 178 175 183 194 174 183 169 173 166 179 175 158 182 172 177 169 209 181 173 186 166 180 188 162 179 192 195 185 191 181 215 196 178 187 181 193 187 186 180 201 193 202 214 212 188 190 164 174 182 195 188 175 215 226 208 185 189 212 189 196 170 206 192 192 182 213 220 226 186 214 214 214 206 231 216 225 259 259 275 240 233 258 266 278 285 320 364 321 296 328 330 305 291 274 245 260 224 232 245 231 233 206 230 245 227 230 234 220 211 247 211 186 212 190 184 171 180 163 179 179 172 153 152 156 154 171 127 165 167 155 146 154 158 170 141 150 178 173 178 171 160 137 133 153 169 174 161 145 146 138 167 133 141 150 130 155 128 150 170 154 158 184 183 188 158 151 161 160 152 162 141 161 128 182 152 138 184 172 164 151 159 149 178 164 147 149 167 128 188 164 160 165 155 135 169 156 134 158 141 154 141 127 151 163 145 150 158 153 168 169 161 170 171 151 138 169 162 183 164 180 173 181 175 158 170 153 167 166 199 188 173 170 189 188 191 190 182 178 184 208 183 178 189 172 167 204 187 211 177 175 177 190 173 177 200 178 166 184 172 173 164 191 145 175 162 171 168 178 169 145 177 152 131 178 159 168 179 154 143 153 156 155 161 171 140 153 125 183 137 162 152 152 138 148 164 162 158 144 148 194 167 158 160 157 157 144 139 154 143 139 143 145 170 153 155 159 142 145 147 148 146 144 145 139 135 149 158 152 130 163 139 132 136 152 133 146 141 142 121 153 161 134 150 161 151 151 134 130 161 139 162 137 136 158 133 146 143 147 139 144 130 144 159 137 151 165 134 143 155 155 163 148 136 148 159 128 142 138 148 151 156 153 175 148 143 143 129 148 142 164 135 158 158 127 142 144 129 153 158 154 151 144 169 160 160 140 140 141 156 140 137 129 139 157 148 155 161 119 149 126 148 171 138 153 147 144 129 144 142 175 144 161 151 150 125 166 140 145 135 162 127 142 139 151 128 122 141 155 111 126 149 136 115 159 146 129 142 130 129 134 134 145 128 139 136 128 133 116 121 119 126 131 137 120 135 136 131 146 120 135 152 115 106 111 147 140 111 121 143 113 120 125 135 144 126 136 102 125 124 117 133 135 130 139 118 119 123 140 122 135 102 125 135 149 124 119 131 127 134 123 128 148 138 130 112 119 118 114 113 133 135 130 129 136 135 115 117 132 120 112 143 125 135 140 136 156 123 151 125 124 124 122 151 130 116 118 147 135 149 145 137 125 157 128 152 125 144 141 133 138 144 125 118 148 133 137 142 136 125 139 124 118 140 133 139 156 124 141 158 140 123 143 127 147 121 116 129 127 139 125 109 136 136 119 148 163 140 141 132 106 139 128 127 131 116 132 142 146 117 131 125 137 115 99 115 128 128 113 116 141 125 108 136 131 122 115 117 147 124 140 152 134 131 129 132 129 126 156 147 156 129 128 139 150 125 123 124 122 136 136 133 133 129 132 140 121 135 145 123 130 135 117 116</counts>
			</dataPoints>
		</scan>
	</xrdMeasurement>
</xrdMeasurements>
