<?xml version="1.0"?>
<xrdMeasurements xmlns="http://www.xrdml.com/XRDMeasurement/2.2" xmlns:xsi="http://www.w3.org/2001/XMLSchema-instance" xsi:schemaLocation="http://www.xrdml.com/XRDMeasurement/2.2 http://www.xrdml.com/XRDMeasurement/2.2/XRDMeasurement.xsd" status="Completed" recordIdentifier="{B95C066C-CE62-4C46-B54D-F41DC7AE1BFF}">
	<comment>
		<entry>Configuration=3-axes Cradle_Reflection with Manual XY, Owner=XRDLAB, Creation date=20-03-2020 12:12:52</entry>
		<entry>Goniometer=Theta/Theta; Minimum step size 2Theta:0.0001; Minimum step size Omega:0.0001</entry>
		<entry>Sample stage=Chi-Phi-z stage 240 mm (reflection) with Manual XY platform; Minimum step size Phi:0.01; Minimum step size Chi:0.01; Minimum step size Z:0.001</entry>
		<entry>Diffractometer system=EMPYREAN</entry>
		<entry>Measurement program=D:\Other Deptt\XRD Programs\Cradle\Gonio XRD scans\Gonio Scan for Solids_10mm spot_Cradle_10-90_8 min.xrdmp, Created identifier={6FCCD36D-0281-4EA0-9AED-2083D2DEBE7D}, Created by=PhD Scholer, Id=allusers, Creation date=24-12-2021 16:59:32, Modified identifier={1AB7A512-BBE4-4BB6-BAD3-9ADC2CAF1B99}, Modified by=XRDLAB, Id=WL:DESKTOP-H0T99MI:XRDLAB, Modification date=08-09-2026 22:10:41</entry>
	</comment>
	<sample type="To be analyzed">
		<id></id>
		<name></name>
		<preparedBy></preparedBy>
	</sample>
	<xrdMeasurement measurementType="Scan" status="Completed" sampleMode="Reflection">
		<comment>
			<entry>PHD Lower Level = 4.02 (keV), PHD Upper Level = 11.27 (keV)</entry>
		</comment>
		<usedWavelength intended="K-Alpha 1">
			<kAlpha1 unit="Angstrom">1.5405980</kAlpha1>
			<kAlpha2 unit="Angstrom">1.5444260</kAlpha2>
			<kBeta unit="Angstrom">1.3922500</kBeta>
			<ratioKAlpha2KAlpha1>0.5000</ratioKAlpha2KAlpha1>
		</usedWavelength>
		<incidentBeamPath>
			<radius unit="mm">240.00</radius>
			<xRayTube id="1010048" name="Empyrean Cu LFF HR (9430 033 7310x) DK427577">
				<tension unit="kV">45.0</tension>
				<current unit="mA">40.0</current>
				<anodeMaterial>Cu</anodeMaterial>
				<focus type="Line">
					<length unit="mm">12.0</length>
					<width unit="mm">0.4</width>
					<takeOffAngle unit="deg">7.6</takeOffAngle>
				</focus>
			</xRayTube>
			<xRayMirror id="27020009" name="Bragg-Brentano HD Cu" hybrid="false">
				<crystal type="Graded" shape="Flat">BB/HD</crystal>
				<acceptanceAngle unit="deg">0.800</acceptanceAngle>
				<length unit="mm">55.3</length>
			</xRayMirror>
			<sollerSlit id="21010010" name="BBHD Soller slits 0.03 rad.">
				<opening unit="rad">0.0300</opening>
			</sollerSlit>
			<mask id="22220007" name="Mask 14.0 mm">
				<distanceToSample unit="mm">171.50</distanceToSample>
				<width unit="mm">14.00</width>
			</mask>
			<mask id="22220006" name="Mask 6.0 mm">
				<distanceToSample unit="mm">111.00</distanceToSample>
				<width unit="mm">6.00</width>
			</mask>
			<divergenceSlit id="22010028" name="PDS for iCore" xsi:type="fixedDivergenceSlitType">
				<distanceToSample unit="mm">95.50</distanceToSample>
				<angle unit="deg">0.125</angle>
			</divergenceSlit>
		</incidentBeamPath>
		<diffractedBeamPath>
			<radius unit="mm">240.00</radius>
			<antiScatterSlit id="22060010" name="PASS for dCore" xsi:type="fixedAntiScatterSlitType">
				<angle unit="deg">0.5</angle>
			</antiScatterSlit>
			<sollerSlit id="21030002" name="dCore Soller slits 0.04 rad.">
				<opening unit="rad">0.0400</opening>
			</sollerSlit>
			<detector id="7010020" name="PIXcel3D-Medipix3 1x1 detector" xsi:type="areaDetectorType">
				<phd unit="%">
					<lowerLevel>25.0</lowerLevel>
					<upperLevel>70.0</upperLevel>
				</phd>
				<mode>Scanning</mode>
				<activeChannelsEquatorial>255</activeChannelsEquatorial>
				<activeChannelsAxial>255</activeChannelsAxial>
				<pitchEquatorial unit="mm">0.05500</pitchEquatorial>
				<pitchAxial unit="mm">0.05500</pitchAxial>
				<readOutPeriod unit="seconds">0.325</readOutPeriod>
			</detector>
		</diffractedBeamPath>
		<scan appendNumber="0" mode="Continuous" scanAxis="Gonio" status="Completed">
			<header>
				<startTimeStamp>2026-09-08T22:15:32+05:30</startTimeStamp>
				<endTimeStamp>2026-09-08T22:46:10+05:30</endTimeStamp>
				<author>
					<name>XRDLAB</name>
				</author>
				<source>
					<applicationSoftware version="7.4">Data Collector</applicationSoftware>
					<instrumentControlSoftware version="8.2b 20221117">EMPYREAN</instrumentControlSoftware>
					<instrumentID>0000000011239941</instrumentID>
				</source>
			</header>
			<dataPoints>
				<positions axis="2Theta" unit="deg">
					<startPosition>20.00656514</startPosition>
					<endPosition>89.99097181</endPosition>
				</positions>
				<positions axis="Omega" unit="deg">
					<startPosition>10.00328257</startPosition>
					<endPosition>44.99548591</endPosition>
				</positions>
				<positions axis="Phi" unit="deg">
					<commonPosition>0.00</commonPosition>
				</positions>
				<positions axis="Chi" unit="deg">
					<commonPosition>0.00</commonPosition>
				</positions>
				<positions axis="Z" unit="mm">
					<commonPosition>6.625</commonPosition>
				</positions>
				<commonCountingTime unit="seconds">81.345</commonCountingTime>
				<counts unit="counts">263 245 256 268 246 236 287 194 285 263 256 273 235 281 238 248 283 278 291 246 281 258 264 216 280 240 262 234 268 297 292 277 290 279 273 281 228 267 263 280 282 243 282 274 280 256 268 268 243 261 281 249 263 228 258 235 258 270 235 290 269 259 288 258 282 281 288 261 262 258 280 283 262 258 279 279 264 266 266 235 248 249 236 233 231 260 266 246 238 259 236 259 275 242 238 221 272 264 245 235 229 238 238 210 238 251 268 239 249 241 241 246 236 258 247 234 247 279 221 217 232 217 222 277 243 241 244 240 223 266 236 232 256 228 259 259 240 247 258 237 257 257 257 277 293 247 235 259 282 234 247 239 263 260 236 232 220 256 230 233 258 235 217 259 209 235 228 270 229 221 226 222 231 258 212 220 220 212 215 212 224 207 219 231 216 213 260 222 244 223 226 224 220 229 207 226 223 195 256 214 234 207 228 232 222 215 219 224 218 193 235 194 217 216 199 200 213 237 211 213 198 222 223 199 236 233 228 193 222 234 256 233 204 237 226 280 221 236 229 216 238 227 237 221 198 218 203 197 221 229 227 221 203 210 213 213 229 223 209 193 217 231 216 198 229 208 205 228 195 215 204 222 225 225 216 225 235 200 193 203 205 222 218 212 217 195 204 215 204 228 227 213 218 205 202 231 244 226 213 226 189 231 217 225 225 222 237 212 202 212 214 208 239 219 217 230 211 195 217 208 222 212 226 218 205 195 218 235 202 187 217 191 190 218 201 223 201 193 202 216 190 193 206 204 223 209 194 212 207 202 210 170 201 217 202 205 192 226 189 187 197 193 176 248 209 186 206 207 187 240 195 197 203 204 225 208 187 224 193 211 212 203 186 217 179 212 176 191 209 185 188 189 203 195 188 206 218 225 234 202 237 201 213 225 214 210 192 203 208 201 222 238 203 198 209 219 230 213 206 213 197 219 213 216 242 230 214 223 225 213 202 211 226 240 189 227 219 239 234 232 239 223 226 231 207 211 218 231 230 206 225 222 218 202 222 212 222 198 206 207 219 202 235 218 203 187 225 185 192 224 205 199 225 202 194 212 228 206 235 240 228 242 247 233 217 227 203 198 179 213 216 232 199 185 211 206 201 232 212 224 217 233 193 201 227 221 210 220 245 216 193 205 211 205 235 224 202 215 207 184 204 204 192 220 201 188 212 218 196 198 189 192 199 188 191 211 195 193 191 199 192 195 236 218 200 192 194 197 205 200 192 219 196 195 188 192 182 195 227 191 205 212 229 182 204 197 186 177 190 170 191 183 161 176 197 182 204 174 209 177 195 191 187 192 196 157 171 165 194 178 180 175 181 165 171 175 183 177 196 204 185 193 210 198 168 155 177 191 196 184 183 168 208 196 197 190 176 153 173 195 184 182 169 171 185 164 168 174 182 170 188 191 181 189 201 179 192 182 203 179 179 189 178 194 209 217 195 155 160 171 181 189 170 185 203 195 164 180 185 162 152 196 175 164 180 166 178 179 182 182 165 173 158 167 153 203 188 181 170 160 178 183 186 188 207 177 213 171 174 157 171 198 175 188 174 192 171 194 211 171 187 205 196 160 193 164 180 194 162 176 180 166 169 155 186 148 200 162 176 187 149 187 162 176 183 198 167 177 176 180 179 187 175 170 176 182 220 185 185 181 197 149 181 186 185 195 162 172 177 180 152 187 169 169 183 144 161 170 178 162 199 168 159 185 183 165 163 199 181 159 162 155 192 160 171 170 150 146 164 170 184 175 139 160 163 182 178 181 171 159 167 188 187 189 149 172 161 199 162 180 162 165 166 161 142 148 176 148 149 166 186 185 170 150 173 181 191 157 142 180 157 199 166 182 161 152 161 185 155 159 171 160 163 133 148 164 185 170 165 189 165 161 168 173 172 157 160 164 165 172 170 162 179 195 171 179 184 188 162 158 154 157 148 191 169 172 164 146 180 155 171 205 179 173 166 164 174 183 179 160 154 155 191 170 177 151 201 164 163 152 178 174 189 161 167 172 168 195 168 145 191 144 183 164 155 174 188 164 157 162 172 174 162 148 149 157 173 178 160 171 167 159 160 178 183 192 160 152 163 200 161 169 174 171 170 182 159 154 184 183 147 185 164 171 148 155 160 155 173 172 163 177 154 160 158 170 149 175 170 173 182 164 162 178 148 164 174 163 153 148 149 174 135 137 171 152 149 164 180 176 171 143 180 153 182 153 160 178 137 141 186 162 136 159 177 155 158 150 172 152 174 181 146 158 164 168 158 163 143 161 176 149 171 171 162 167 150 136 167 154 182 170 161 155 172 180 189 176 173 149 199 162 171 164 161 194 156 171 188 180 161 186 163 174 165 175 167 170 162 184 149 151 167 170 159 139 161 152 166 184 170 166 158 162 164 161 182 173 182 175 174 162 159 161 173 167 171 177 146 168 151 175 172 173 188 153 165 190 164 175 182 175 172 174 197 157 178 149 161 180 170 192 206 186 198 170 169 173 185 178 207 193 199 197 163 180 194 179 176 184 184 180 207 185 189 192 202 194 223 193 188 202 198 178 178 204 187 227 203 187 180 186 170 186 165 210 190 195 217 184 199 196 216 212 200 192 195 197 202 205 188 194 186 195 215 217 216 198 219 224 222 204 174 224 179 191 186 215 217 219 201 178 197 212 189 210 188 205 203 204 196 211 199 204 206 200 215 210 207 195 202 179 212 209 212 203 218 199 189 199 204 204 212 188 213 226 222 208 233 197 199 213 212 218 208 199 224 194 198 193 209 218 208 247 197 210 213 236 215 251 226 208 216 211 216 196 199 221 202 198 199 223 212 199 205 243 219 217 200 213 218 206 214 209 215 217 264 211 257 206 238 215 225 216 229 211 225 217 246 246 217 226 217 230 243 233 225 218 209 216 236 211 217 249 239 237 226 242 225 242 265 243 218 232 203 238 236 269 246 239 225 265 249 267 257 234 275 231 273 244 234 273 264 264 261 290 279 267 270 298 298 275 285 308 301 314 294 315 324 331 320 339 348 343 359 345 342 353 367 393 373 379 371 433 450 447 470 440 475 513 482 528 527 593 576 605 590 669 644 674 741 758 809 797 790 859 835 927 937 958 1001 1031 1023 1076 1128 1124 1120 1191 1216 1214 1258 1268 1288 1330 1284 1277 1327 1353 1265 1329 1258 1239 1280 1261 1178 1200 1194 1160 1129 1043 1009 973 945 919 865 877 844 840 777 720 678 656 702 637 633 606 600 562 552 533 518 518 488 513 464 462 435 415 392 385 376 385 396 342 304 354 332 386 327 340 319 313 312 299 333 317 329 267 248 279 303 283 287 292 282 263 270 288 285 246 286 266 246 248 233 258 260 227 283 232 266 264 261 202 234 266 266 266 272 272 263 241 225 270 239 241 260 226 226 245 229 240 257 203 278 204 226 219 270 243 222 256 243 236 217 214 198 238 262 229 227 237 265 211 237 238 225 236 241 231 272 208 224 210 238 220 218 230 238 241 202 216 202 247 214 234 220 220 226 223 237 209 213 203 209 210 229 218 209 230 219 203 223 238 196 203 223 199 229 229 231 234 211 214 208 237 230 229 227 213 233 199 200 234 218 191 235 232 223 228 212 218 223 221 220 206 204 197 229 208 246 207 197 227 209 210 181 236 202 233 204 211 221 211 214 193 209 225 216 214 218 202 192 207 188 218 202 204 218 203 209 205 196 199 216 199 207 211 208 198 207 224 222 194 192 209 202 216 232 201 236 215 185 167 185 205 215 220 203 210 219 199 216 205 176 218 218 185 203 196 205 244 179 233 179 212 239 215 216 218 226 212 205 211 208 210 206 198 183 211 208 170 207 194 237 186 195 207 214 193 230 200 177 193 186 196 212 211 197 206 186 209 210 195 176 217 214 198 192 196 204 193 194 214 169 198 207 192 183 185 193 204 218 209 214 205 210 191 194 205 199 219 189 180 197 186 187 200 222 186 181 187 186 208 221 192 184 197 174 173 200 182 178 188 192 194 189 193 201 188 196 185 187 187 201 193 188 193 202 201 213 211 196 194 206 179 196 175 204 197 175 182 201 187 179 186 184 180 166 179 183 205 165 199 195 189 177 204 185 196 182 185 184 208 166 179 208 185 195 180 178 167 191 183 172 167 179 210 195 208 153 216 191 149 170 194 187 176 177 151 177 175 186 200 179 201 202 195 176 194 183 180 186 163 176 194 190 197 186 177 190 194 193 184 195 183 183 179 191 153 205 174 196 168 174 194 160 180 181 184 176 173 168 174 176 169 174 193 158 184 173 185 188 186 179 187 150 161 198 165 172 178 179 167 154 176 177 165 160 163 143 187 151 165 162 177 189 165 174 174 158 152 200 179 169 147 157 173 163 173 175 196 191 179 169 169 156 161 165 200 173 171 164 180 182 171 171 175 168 185 170 151 179 178 183 183 155 197 154 156 182 173 181 154 169 185 160 171 144 168 156 195 160 163 181 188 173 179 180 167 174 175 178 176 177 173 168 173 178 168 163 168 190 155 182 177 171 215 180 181 161 167 182 163 163 154 178 194 185 178 163 199 171 156 168 158 181 134 143 159 160 180 141 173 171 155 171 142 165 195 169 171 192 134 161 165 183 186 158 178 183 162 157 169 164 184 188 170 176 159 172 157 150 160 148 179 159 154 167 182 142 156 171 149 177 177 166 160 175 171 166 152 181 184 168 148 173 172 191 165 163 159 163 159 163 175 157 140 172 183 182 155 163 153 157 162 166 154 162 197 151 178 164 155 161 167 174 167 162 166 182 154 153 169 128 165 168 183 142 184 151 171 185 150 180 152 160 146 165 147 158 187 162 169 143 175 173 149 155 177 150 150 152 144 171 154 168 156 155 144 164 163 172 179 133 176 157 158 142 154 171 159 168 152 160 169 177 164 153 178 155 177 185 154 140 151 159 169 169 152 169 176 149 144 168 164 170 164 163 150 139 158 188 185 138 140 172 141 168 155 170 184 162 163 152 156 183 124 158 148 180 171 164 164 157 144 155 150 196 162 140 157 181 138 159 151 162 173 154 154 162 152 172 165 135 169 142 148 152 161 156 164 167 152 155 157 148 162 188 167 143 160 169 148 150 157 179 184 145 158 152 166 133 136 145 167 146 140 169 182 152 183 163 155 178 155 148 171 140 145 157 170 142 155 175 141 161 152 162 161 150 136 141 155 146 175 175 163 150 160 149 172 158 133 134 158 159 126 167 172 168 147 175 166 175 159 154 139 143 132 175 158 147 176 151 162 155 144 146 125 147 167 171 158 175 161 157 151 154 166 144 158 138 163 164 163 155 134 160 144 173 151 156 149 144 165 157 157 176 141 168 164 178 149 154 149 159 147 140 156 158 136 146 152 132 154 153 152 161 145 137 153 161 148 175 139 142 114 147 153 146 125 119 131 158 140 151 175 149 146 137 127 157 141 131 156 152 142 151 141 149 156 154 154 141 137 161 130 157 140 136 144 134 138 137 161 123 114 137 135 139 155 138 122 131 145 124 120 140 116 130 137 144 142 122 113 165 135 145 125 137 142 153 138 154 131 132 137 100 144 136 134 130 143 130 131 142 153 125 150 132 125 127 132 130 117 129 130 126 145 126 134 122 112 124 121 131 130 122 133 156 136 137 128 134 147 139 142 162 136 145 114 136 127 126 124 109 114 133 121 120 123 137 127 136 132 136 123 139 134 126 111 159 138 131 133 138 141 128 137 150 149 153 138 133 128 124 137 116 143 134 152 138 130 139 137 133 120 133 132 143 129 146 151 149 131 119 141 136 111 126 138 144 166 154 134 134 136 131 143 150 144 133 124 112 127 141 141 139 148 140 139 135 163 131 149 152 153 149 155 148 143 155 151 158 143 149 145 170 158 145 162 163 162 172 144 154 184 171 167 177 181 162 168 180 192 170 191 190 216 186 200 216 224 196 228 213 224 233 269 268 241 287 307 246 308 292 304 304 329 323 317 354 374 368 350 399 381 437 441 439 456 516 506 470 499 534 548 551 585 582 615 653 618 648 645 615 694 688 736 656 717 688 719 758 719 742 707 722 683 684 625 670 624 635 579 626 581 609 583 588 589 559 515 515 500 506 497 476 461 411 439 408 428 381 432 361 382 350 348 316 340 317 308 282 362 303 247 268 230 259 236 238 205 204 228 230 205 190 225 190 193 177 190 177 189 169 175 188 177 185 182 173 172 166 149 150 152 156 166 148 161 156 143 158 169 161 155 138 153 138 143 148 137 141 159 131 139 137 144 135 153 157 126 129 125 148 150 142 148 149 135 143 158 133 143 140 146 138 125 141 130 137 130 114 130 120 150 136 132 134 125 122 134 121 131 140 120 110 112 101 128 117 117 130 123 114 146 120 109 145 136 131 123 138 131 118 118 142 134 112 170 140 138 120 129 124 127 146 147 119 120 125 143 128 117 131 130 140 123 139 119 115 122 144 132 140 119 119 119 116 124 137 132 132 130 134 143 119 125 114 125 109 120 102 106 111 100 131 106 139 135 110 126 105 129 138 120 106 114 111 115 120 101 110 120 95 108 117 113 109 139 135 119 122 127 126 131 125 119 120 130 128 121 107 111 127 125 101 116 121 131 132 107 144 114 131 128 120 137 117 117 123 118 120 132 121 103 117 116 119 114 109 105 102 119 110 128 123 116 109 114 115 113 135 141 144 111 109 111 107 111 100 111 118 121 125 127 117 123 117 113 124 105 134 107 97 112 101 120 115 111 108 130 105 124 104 122 96 119 110 120 128 122 126 115 114 86 101 120 104 103 116 118 102 102 107 102 87 100 107 99 117 123 116 118 112 109 121 116 127 111 102 120 117 104 128 121 116 116 125 103 126 121 103 124 132 125 125 132 118 134 124 130 114 114 106 102 121 110 108 112 126 92 120 121 110 106 111 128 118 118 108 116 132 121 118 138 116 108 122 122 119 124 133 132 134 141 129 129 131 133 121 132 133 103 148 109 137 136 148 138 105 123 138 137 126 125 128 117 109 126 122 131 145 125 123 116 124 114 138 121 117 120 135 128 125 149 100 136 114 141 130 124 118 140 129 117 137 129 125 123 123 121 123 107 135 145 147 109 114 117 123 113 136 125 132 107 125 112 110 116 103 118 105 122 129 111 112 128 133 114 122 129 129 123 127 120 118 134 125 121 134 99 126 130 137 128 107 104 115 123 116 120 114 117 124 125 116 114 104 134 109 129 114 116 106 141 110 109 114 124 97 154 111 122 109 108 131 103 109 114 116 109 94 121 111 123 116 145 130 128 115 114 135 127 114 117 126 126 124 103 109 127 127 132 109 134 99 112 145 129 130 118 140 118 138 132 116 145 142 123 143 131 110 120 136 117 127 107 100 122 119 133 128 135 113 125 116 135 100 114 137 127 128 126 124 114 124 133 114 113 107 104 115 117 111 119 101 124 111 118 112 101 111 111 117 127 104 137 119 114 131 96 122 103 96 133 110 106 125 129 121 125 117 116 112 103 116 136 116 119 128 96 131 96 115 106 107 113 109 110 106 108 103 115 123 111 92 96 102 112 86 118 118 113 80 107 96 99 111 130 107 121 117 105 91 111 118 96 116 90 114 119 120 121 99 106 107 95 122 108 103 107 104 101 89 101 102 102 106 105 114 115 131 116 89 116 118 98 98 109 107 106 116 117 110 116 140 133 106 103 111 105 114 110 105 114 103 96 89 138 118 116 115 97 103 97 115 105 129 122 125 97 127 123 136 111 98 117 130 112 130 117 101 114 133 102 96 105 123 108 119 126 111 116 116 111 111 110 130 104 140 129 130 113 113 129 110 137 137 119 118 135 103 110 107 108 121 105 107 102 101 116 118 126 110 112 110 107 92 116 117 128 137 119 110 119 107 120 98 115 104 111 123 126 123 101 136 112 109 117 94 117 122 126 120 105 85 109 86 129 113 106 108 112 109 107 118 114 103 113 96 126 103 106 110 126 113 94 103 97 112 104 112 107 98 109 112 125 93 126 97 100 115 113 116 100 98 118 124 127 102 116 90 118 94 93 109 111 121 107 111 106 115 106 115 101 114 110 109 95 102 94 117 99 119 124 101 110 86 114 118 103 119 103 114 111 100 110 98 121 113 111 101 132 106 107 105 110 110 115 119 118 100 112 104 105 111 106 112 105 120 133 106 107 94 114 122 117 102 120 114 109 114 107 100 126 111 103 113 117 155 125 111 117 123 123 123 107 119 109 123 106 126 112 89 125 106 136 110 146 136 125 116 117 126 124 114 105 115 131 127 121 134 123 128 98 107 115 114 140 102 118 122 119 137 118 128 114 139 113 128 107 133 123 127 145 147 131 136 142 135 150 134 124 142 134 149 146 146 141 129 130 142 130 148 134 141 170 136 135 136 160 160 139 141 161 154 176 162 150 169 144 156 161 172 156 148 156 196 180 184 184 176 173 188 180 200 161 206 207 212 179 191 199 176 190 179 178 195 229 196 210 197 215 199 193 178 210 194 193 176 188 214 226 183 192 192 230 228 245 221 189 232 197 182 192 192 183 201 209 173 165 169 194 178 193 179 158 168 148 166 165 183 178 138 165 160 150 145 119 151 144 139 157 148 160 126 136 143 159 153 155 180 136 155 132 133 138 159 152 126 126 144 130 123 137 121 145 122 158 128 147 130 147 134 145 139 150 104 137 122 132 111 128 139 103 117 129 130 124 124 99 112 113 111 146 116 111 108 127 119 130 138 137 131 128 134 106 125 110 98 128 112 122 126 116 127 126 110 123 110 101 119 131 102 111 109 151 128 146 114 105 106 107 120 103 116 100 112 116 122 127 121 127 92 115 116 115 110 113 106 116 108 112 123 104 107 113 109 105 108 116 113 128 112 132 104 102 110 117 130 117 117 112 118 101 112 121 104 110 106 129 129 117 106 103 136 105 108 97 101 91 100 85 97 84 106 121 106 110 109 119 110 104 92 97 97 121 90 107 108 114 101 104 101 106 97 112 100 106 110 96 114 105 124 128 137 93 102 107 124 97 124 115 101 110 118 98 129 111 130 141 129 116 127 109 140 142 123 137 131 126 132 117 111 122 117 121 129 116 144 126 125 126 121 118 126 110 120 117 117 113 133 110 123 119 124 127 126 141 106 122 127 114 118 138 149 131 104 116 140 143 132 116 115 136 129 104 145 128 121 123 123 135 111 130 125 122 114 132 121 144 124 114 125 134 138 118 132 130 123 140 113 136 121 118 131 120 114 124 143 156 122 123 146 98 131 117 128 125 144 125 111 136 117 118 119 114 108 121 128 109 112 125 112 132 135 115 122 139 124 122 107 133 105 114 135 112 126 120 104 125 114 124 120 117 125 128 100 123 119 136 131 133 125 103 119 122 125 92 121 110 119 110 120 117 126 123 103 103 121 127 92 109 115 122 102 122 116 119 129 131 90 86 115 119 111 103 122 108 148 114 133 147 89 108 113 124 105 103 140 114 122 111 101 103 102 113 112 125 123 117 131 114 110 129 102 135 118 110 111 94 124 122 105 129 86 100 109 108 110 109 113 113 114 133 110 130 129 120 111 141 127 111 142 136 112 139 102 110 121 128 124 125 102 120 129 129 111 121 129 111 102 126 110 131 134 125 112 97 126 111 122 98 111 106 105 124 108 109 107 138 137 106 105 118 134 122 115 117 122 103 117 128 116 132 140 109 126 149 137 119 127 131 136 106 108 123 111 114 114 126 118 119 112 123 109 124 112 130 109 122 105 124 134 105 114 125 118 121 135 119 127 113 125 137 125 107 121 105 113 125 112 114 116 129 122 105 101 100 134 120 102 132 121 117 117 126 122 128 108 111 125 113 135 117 133 109 114 111 108 110 129 120 107 124 110 106 99 98 109 99 119 110 112 100 110 101 102 113 121 110 127 115 89 107 112 116 128 115 115 121 113 119 103 112 116 123 99 88 125 130 109 107 129 106 116 143 116 124 103 119 122 133 124 121 119 125 110 114 114 103 105 124 122 120 113 103 118 104 116 107 138 101 130 120 103 132 130 111 129 110 137 109 136 112 121 120 117 126 111 130 102 118 99 110 107 123 129 116 115 107 96 100 102 117 122 113 126 108 134 126 114 137 107 113 126 120 112 114 129 120 130 125 127 128 123 136 101 119 116 130 107 120 107 121 114 116 116 137 108 117 120 111 109 107 113 109 124 107 117 107 102 129 127 122 106 105 113 117 135 122 104 101 115 125 90 131 118 118 115 97 129 122 123 125 108 113 119 114 119 109 93 114 128 116 107 100 111 122 109 101 117 115 102 103 110 116 102 126 122 101 133 112 107 129 103 127 118 112 108 103 101 127 137 117 118 120 111 119 115 110 97 113 120 120 106 96 125 111 111 123 122 113 126 124 134 107 110 116 127 106 115 126 136 137 108 116 124 113 122 124 134 116 133 127 147 118 112 137 129 120 137 125 121 146 114 114 139 114 127 115 117 118 131 156 122 132 147 117 147 139 120 131 110 132 139 105 124 155 144 120 134 134 130 132 131 121 131 118 121 127 125 133 158 125 122 134 106 117 139 124 133 125 129 136 128 131 146 120 142 120 151 126 152 116 148 147 133 143 124 153 134 139 150 132 148 142 126 130 143 132 138 156 145 138 149 164 142 118 152 153 157 132 149 152 162 141 139 129 148 142 153 147 148 141 160 153 135 135 147 143 134 138 130 144 144 149 132 128 142 169 131 156 156 144 160 142 137 132 134 142 143 136 139 138 131 130 138 142 134 164 137 134 129 142 145 163 144 125 126 141 141 129 139 144 140 135 153 126 139 159 137 140 151 127 129 127 123 138 133 115 123 143 123 132 140 124 130 132 140 147 134 146 124 141 143 131 135 117 142 140 132 142 134 127 144 148 142 160 132 120 129 125 125 125 118 117 142 151 147 133 138 110 156 141 127 113 103 156 147 134 135 133 124 125 137 133 123 133 138 136 141 132 144 149 149 141 130 150 135 137 171 165 156 145 146 142 140 140 146 157 135 165 145 141 138 160 153 142 163 144 154 142 149 137 167 143 144 154 138 156 148 139 133 141 159 150 170 146 173 139 130 135 131 147 153 165 139 149 170 153 129 147 136 138 188 151 158 141 131 169 147 147 151 157 164 136 148 138 113 139 165 128 134 145 145 130 136 149 159 145 150 145 150 145 160 153 153 134 122 147 121 150 136 119 115 140 151 163 126 150 140 126 145 119 119 148 138 130 135 135 163 138 129 143 130 129 127 158 139 126 148 125 149 151 130 151 134 131 124 153 147 142 136 147 120 155 124 139 135 146 164 152 137 166 151 160 125 137 140 141 131 149 142 151 137 132 136 138 124 109 153 139 131 144 135 147 143 134 162 157 154 168 157 129 131 147 148 171 132 134 144 153 144 127 138 151 131 124 139 155 136 124 135 152 136 182 145 135 139 131 134 125 127 135 137 148 119 129 133 143 118 150 122 120 132 140 113 124 131 135 145 132 115 128 107 118 132 120 129 109 141 129 125 122 127 111 115 106 117 121 122 115 116 113 128 112 129 128 112 135 120 117 135 122 106 111 116 101 127 128 116 104 101 112 108 98 111 119 102 133 113 119 89 116 117 101 117 129 124 104 113 113 93 104 125 110 116 115 114 102 108 108 109 107 98 109 112 115 98 95 104 118 110 123 103 109 97 104 102 103 108 125 113 128 112 113 102 110 109 89 108 110 103 108 119 105 124 103 104 115 85 109 122 126 104 108 104 112 98 115 132 111 104 110 97 103 127 110 110 102 115 120 116 118 119 117 113 126 124 118 110 108 125 121 113 109 106 116 115 106 120 111 115 128 127 110 110 114 102 126 112 115 111 122 101 107 108 105 112 106 102 94 131 120 98 111 114 130 102 114 113 115 113 97 115 131 111 131 110 121 103 101 119 116 99 128 98 115 105 110 97 124 109 103 121 122 117 128 124 115 100 108 121 105 127 100 105 94 114 114 113 97 104 91 106 106 107 94 111 114 108 124 103 106 100 122 112 92 109 101 105 123 100 92 95 115 111</counts>
			</dataPoints>
		</scan>
	</xrdMeasurement>
</xrdMeasurements>
